time,voltage,current
0.000000,3.446877,0.500452
0.519950,3.445288,0.500492
1.039973,3.444827,0.500492
1.559966,3.444463,0.500479
2.079966,3.444145,0.500479
2.599970,3.443852,0.500479
3.119940,3.443578,0.500479
3.639955,3.443318,0.500466
4.159953,3.443069,0.500492
4.679967,3.442825,0.500492
5.200007,3.442590,0.500492
5.719973,3.442362,0.500479
6.239994,3.442141,0.500479
6.759966,3.441924,0.500505
7.279969,3.441714,0.500492
7.799955,3.441506,0.500479
8.319965,3.441305,0.500479
8.840028,3.441109,0.500479
9.359970,3.440913,0.500479
9.879974,3.440726,0.500492
10.399967,3.440535,0.500505
10.919961,3.440353,0.500452
11.439968,3.440170,0.500466
11.959982,3.439990,0.500479
12.479969,3.439813,0.500505
12.999974,3.439642,0.500505
13.520014,3.439469,0.500492
14.039965,3.439301,0.500452
14.559984,3.439137,0.500505
15.079971,3.438971,0.500492
15.599972,3.438807,0.500387
16.119935,3.438647,0.500479
16.639960,3.438492,0.500505
17.159950,3.438335,0.500479
17.679947,3.438180,0.500479
18.199971,3.438029,0.500492
18.719970,3.437874,0.500492
19.239971,3.437728,0.500479
19.759979,3.437576,0.500479
20.279981,3.437433,0.500479
20.799973,3.437288,0.500505
21.319971,3.437148,0.500479
21.840011,3.437003,0.500492
22.359963,3.436861,0.500518
22.879966,3.436727,0.500466
23.399971,3.436587,0.500492
23.919967,3.436448,0.500518
24.439971,3.436316,0.500479
24.959980,3.436184,0.500479
25.479978,3.436048,0.500505
25.999971,3.435919,0.500505
26.519970,3.435788,0.500479
27.039975,3.435660,0.500466
27.559977,3.435532,0.500518
28.079975,3.435405,0.500505
28.599976,3.435281,0.500452
29.119970,3.435153,0.500466
29.639978,3.435030,0.500479
30.159966,3.434909,0.500531
30.679969,3.434788,0.500492
31.199970,3.434665,0.500479
31.719968,3.434544,0.500479
32.239989,3.434429,0.500505
32.759968,3.434309,0.500505
33.279974,3.434196,0.500466
33.799961,3.434077,0.500492
34.319963,3.433962,0.500479
34.839964,3.433847,0.500518
35.359949,3.433735,0.500492
35.879955,3.433620,0.500479
36.399963,3.433508,0.500505
36.919944,3.433400,0.500531
37.439972,3.433286,0.500492
37.959969,3.433178,0.500466
38.479977,3.433067,0.500518
38.999971,3.432962,0.500531
39.519970,3.432853,0.500492
40.039968,3.432747,0.500492
40.559983,3.432638,0.500518
41.079976,3.432535,0.500505
41.599945,3.432428,0.500466
42.119948,3.432325,0.500492
42.639936,3.432223,0.500505
43.159958,3.432121,0.500505
43.679948,3.432016,0.500466
44.199973,3.431914,0.500492
44.719983,3.431819,0.500531
45.239980,3.431715,0.500479
45.759967,3.431615,0.500505
46.279981,3.431520,0.500492
46.799969,3.431418,0.500505
47.319970,3.431320,0.500479
47.839988,3.431222,0.500492
48.359972,3.431127,0.500505
48.879972,3.431028,0.500492
49.399964,3.430934,0.500505
49.919968,3.430838,0.500492
50.439968,3.430743,0.500466
50.959969,3.430649,0.500426
51.479971,3.430555,0.500505
51.999966,3.430463,0.500492
52.519968,3.430370,0.500505
53.039968,3.430280,0.500518
53.559968,3.430184,0.500479
54.079968,3.430095,0.500505
54.599965,3.430002,0.500492
55.119970,3.429912,0.500492
55.639968,3.429823,0.500505
56.159976,3.429730,0.500505
56.679964,3.429644,0.500505
57.199944,3.429553,0.500518
57.719970,3.429466,0.500479
58.239974,3.429378,0.500479
58.759970,3.429290,0.500505
59.279973,3.429204,0.500466
59.799977,3.429115,0.500492
60.319977,3.429028,0.500531
60.839976,3.428946,0.500492
61.359980,3.428859,0.500479
61.879942,3.428775,0.500505
62.399969,3.428689,0.500518
62.919958,3.428605,0.500518
63.439970,3.428519,0.500452
63.959957,3.428437,0.500452
64.479953,3.428353,0.500518
64.999954,3.428269,0.500492
65.519947,3.428188,0.500492
66.039938,3.428108,0.500492
66.559961,3.428026,0.500505
67.079959,3.427944,0.500505
67.599974,3.427863,0.500466
68.119975,3.427780,0.500505
68.639966,3.427702,0.500466
69.159969,3.427621,0.500518
69.679968,3.427537,0.500492
70.199965,3.427459,0.500479
70.719959,3.427382,0.500505
71.239972,3.427302,0.500505
71.759980,3.427223,0.500466
72.279952,3.427141,0.500492
72.799964,3.427066,0.500518
73.319954,3.426988,0.500492
73.839984,3.426913,0.500479
74.359967,3.426837,0.500518
74.879962,3.426756,0.500505
75.399939,3.426680,0.500479
75.919953,3.426605,0.500479
76.439956,3.426528,0.500492
76.959970,3.426454,0.500492
77.479961,3.426375,0.500466
77.999949,3.426301,0.500505
78.519961,3.426226,0.500531
79.039961,3.426151,0.500492
79.559974,3.426075,0.500505
80.079950,3.426003,0.500518
80.599951,3.425929,0.500505
81.119939,3.425850,0.500479
81.639941,3.425782,0.500466
82.159962,3.425706,0.500505
82.679951,3.425635,0.500492
83.199965,3.425565,0.500505
83.719961,3.425489,0.500518
84.239939,3.425416,0.500466
84.759979,3.425343,0.500505
85.279934,3.425276,0.500492
85.799954,3.425201,0.500479
86.319954,3.425132,0.500479
86.839947,3.425062,0.500479
87.359979,3.424988,0.500492
87.879974,3.424919,0.500518
88.399979,3.424849,0.500466
88.919977,3.424775,0.500452
89.439968,3.424706,0.500492
89.959971,3.424637,0.500479
90.479970,3.424565,0.500492
90.999959,3.424499,0.500505
91.519956,3.424427,0.500492
92.039945,3.424360,0.500492
92.559952,3.424290,0.500492
93.079959,3.424219,0.500505
93.599948,3.424152,0.500518
94.120002,3.424084,0.500479
94.639955,3.424017,0.500492
95.159978,3.423950,0.500492
95.679966,3.423880,0.500479
96.199962,3.423813,0.500505
96.719955,3.423745,0.500479
97.239954,3.423676,0.500505
97.759955,3.423610,0.500518
98.279953,3.423543,0.500479
98.799936,3.423476,0.500492
99.319957,3.423409,0.500466
99.840032,3.423341,0.500479
100.359978,3.423278,0.500518
100.879964,3.423211,0.500518
101.399980,3.423145,0.500479
101.919968,3.423076,0.500492
102.439976,3.423014,0.500518
102.959965,3.422950,0.500492
103.479968,3.422884,0.500505
103.999972,3.422817,0.500479
104.519968,3.422755,0.500479
105.039977,3.422690,0.500505
105.559990,3.422623,0.500505
106.080058,3.422560,0.500505
106.599975,3.422492,0.500518
107.119935,3.422431,0.500505
107.639974,3.422367,0.500452
108.159936,3.422302,0.500531
108.679949,3.422239,0.500518
109.199957,3.422172,0.500479
109.719958,3.422112,0.500505
110.239959,3.422048,0.500531
110.759952,3.421985,0.500492
111.279974,3.421924,0.500505
111.799932,3.421860,0.500505
112.319955,3.421795,0.500479
112.839962,3.421733,0.500518
113.359961,3.421674,0.500505
113.879941,3.421605,0.500479
114.399935,3.421547,0.500518
114.919949,3.421485,0.500466
115.439965,3.421421,0.500505
115.959969,3.421360,0.500492
116.479966,3.421300,0.500492
116.999969,3.421238,0.500479
117.519974,3.421177,0.500479
118.039968,3.421113,0.500505
118.559963,3.421052,0.500492
119.079963,3.420989,0.500492
119.599972,3.420931,0.500492
120.119956,3.420867,0.500505
120.639959,3.420807,0.500518
121.159979,3.420747,0.500492
121.679962,3.420689,0.500466
122.199965,3.420625,0.500518
122.719980,3.420567,0.500479
123.239967,3.420506,0.500518
123.759949,3.420443,0.500492
124.279966,3.420383,0.500505
124.799955,3.420326,0.500518
125.319958,3.420265,0.500492
125.839975,3.420205,0.500518
126.360006,3.420146,0.500505
126.879965,3.420085,0.500479
127.399978,3.420027,0.500531
127.919969,3.419964,0.500479
128.439963,3.419909,0.500492
128.959968,3.419851,0.500505
129.479966,3.419789,0.500492
129.999981,3.419728,0.500492
130.519965,3.419674,0.500492
131.039963,3.419615,0.500505
131.559967,3.419554,0.500518
132.079974,3.419498,0.500479
132.600088,3.419437,0.500518
133.119961,3.419381,0.500492
133.639939,3.419323,0.500505
134.159953,3.419264,0.500518
134.679967,3.419208,0.500439
135.199954,3.419146,0.500518
135.719962,3.419089,0.500492
136.239960,3.419030,0.500479
136.759966,3.418976,0.500531
137.279941,3.418915,0.500479
137.799966,3.418860,0.500492
138.319965,3.418803,0.500518
138.840029,3.418747,0.500479
139.359969,3.418687,0.500479
139.879969,3.418631,0.500492
140.399966,3.418575,0.500492
140.919970,3.418515,0.500492
141.439971,3.418460,0.500492
141.959967,3.418403,0.500531
142.479969,3.418344,0.500518
142.999971,3.418290,0.500479
143.519970,3.418235,0.500505
144.039971,3.418177,0.500479
144.559971,3.418120,0.500492
145.079971,3.418065,0.500492
145.599973,3.418010,0.500492
146.119961,3.417951,0.500531
146.639967,3.417893,0.500479
147.159970,3.417838,0.500518
147.679978,3.417786,0.500505
148.199966,3.417728,0.500492
148.719972,3.417674,0.500505
149.239976,3.417619,0.500505
149.759982,3.417561,0.500518
150.279977,3.417506,0.500492
150.799969,3.417452,0.500505
151.319969,3.417400,0.500518
151.839986,3.417337,0.500479
152.359988,3.417284,0.500479
152.879967,3.417229,0.500505
153.399955,3.417172,0.500505
153.919962,3.417120,0.500466
154.439954,3.417068,0.500505
154.959964,3.417008,0.500505
155.479960,3.416954,0.500479
155.999959,3.416901,0.500505
156.519966,3.416846,0.500492
157.039968,3.416790,0.500452
157.559968,3.416740,0.500518
158.079970,3.416681,0.500492
158.599954,3.416628,0.500505
159.119963,3.416573,0.500505
159.639953,3.416520,0.500492
160.159961,3.416468,0.500518
160.679954,3.416412,0.500492
161.199990,3.416359,0.500505
161.719956,3.416304,0.500505
162.239950,3.416251,0.500492
162.759954,3.416198,0.500505
163.279953,3.416144,0.500518
163.799960,3.416088,0.500479
164.319971,3.416037,0.500518
164.839986,3.415983,0.500531
165.359953,3.415930,0.500466
165.879968,3.415875,0.500531
166.399972,3.415822,0.500492
166.919963,3.415770,0.500518
167.439973,3.415717,0.500505
167.959979,3.415661,0.500492
168.479960,3.415611,0.500518
168.999966,3.415555,0.500479
169.519972,3.415504,0.500518
170.039968,3.415450,0.500439
170.559981,3.415397,0.500518
171.079959,3.415348,0.500505
171.599969,3.415296,0.500518
172.119974,3.415241,0.500518
172.639963,3.415188,0.500505
173.159969,3.415135,0.500518
173.679970,3.415083,0.500492
174.199965,3.415032,0.500505
174.720020,3.414976,0.500452
175.239970,3.414925,0.500492
175.759972,3.414872,0.500505
176.279974,3.414816,0.500492
176.799973,3.414771,0.500531
177.319970,3.414717,0.500518
177.840014,3.414665,0.500466
178.359959,3.414612,0.500505
178.879961,3.414559,0.500492
179.399972,3.414508,0.500505
179.919971,3.414459,0.500531
180.439966,3.414406,0.500518
180.959969,3.414352,0.500492
181.479962,3.414303,0.500505
181.999969,3.414252,0.500492
182.519969,3.414199,0.500531
183.039969,3.414147,0.500466
183.559977,3.414096,0.500505
184.079963,3.414045,0.500479
184.599960,3.413994,0.500518
185.119963,3.413943,0.500492
185.639968,3.413891,0.500505
186.159966,3.413838,0.500531
186.679970,3.413787,0.500479
187.199963,3.413737,0.500531
187.719963,3.413685,0.500452
188.239953,3.413635,0.500518
188.759960,3.413587,0.500505
189.279967,3.413534,0.500492
189.799963,3.413483,0.500518
190.319960,3.413430,0.500505
190.839960,3.413379,0.500492
191.359961,3.413331,0.500518
191.879932,3.413281,0.500505
192.399943,3.413230,0.500466
192.919949,3.413176,0.500505
193.439937,3.413125,0.500479
193.959950,3.413078,0.500518
194.479967,3.413025,0.500492
194.999955,3.412974,0.500479
195.519978,3.412926,0.500492
196.039932,3.412874,0.500492
196.559952,3.412824,0.500518
197.079961,3.412775,0.500479
197.599965,3.412722,0.500518
198.119969,3.412673,0.500531
198.639975,3.412621,0.500479
199.159978,3.412571,0.500505
199.679950,3.412521,0.500518
200.199968,3.412474,0.500531
200.719970,3.412421,0.500466
201.239968,3.412372,0.500492
201.759972,3.412321,0.500518
202.279977,3.412273,0.500466
202.799975,3.412225,0.500505
203.319977,3.412171,0.500492
203.840039,3.412120,0.500505
204.359965,3.412072,0.500531
204.879961,3.412021,0.500492
205.399966,3.411972,0.500452
205.919966,3.411921,0.500505
206.439976,3.411874,0.500479
206.959968,3.411823,0.500505
207.479969,3.411774,0.500479
207.999964,3.411726,0.500505
208.519967,3.411673,0.500479
209.039966,3.411625,0.500505
209.559972,3.411576,0.500518
210.079966,3.411526,0.500452
210.599959,3.411477,0.500492
211.119933,3.411429,0.500492
211.639931,3.411378,0.500518
212.159935,3.411331,0.500531
212.679935,3.411280,0.500505
213.199953,3.411229,0.500492
213.719957,3.411179,0.500518
214.239964,3.411130,0.500518
214.760008,3.411083,0.500492
215.279934,3.411034,0.500505
215.799956,3.410984,0.500492
216.319962,3.410936,0.500518
216.839944,3.410889,0.500492
217.359954,3.410838,0.500505
217.879956,3.410789,0.500518
218.399967,3.410740,0.500439
218.919940,3.410690,0.500531
219.439933,3.410646,0.500518
219.959956,3.410592,0.500492
220.479941,3.410544,0.500505
220.999954,3.410498,0.500492
221.519960,3.410449,0.500531
222.039946,3.410398,0.500492
222.559961,3.410351,0.500479
223.079932,3.410300,0.500466
223.599934,3.410254,0.500479
224.119933,3.410204,0.500505
224.639934,3.410157,0.500505
225.159961,3.410105,0.500518
225.679971,3.410059,0.500505
226.199941,3.410009,0.500466
226.719955,3.409963,0.500531
227.239958,3.409913,0.500492
227.759962,3.409865,0.500452
228.279995,3.409815,0.500492
228.799933,3.409770,0.500492
229.319958,3.409721,0.500479
229.839981,3.409674,0.500492
230.359970,3.409626,0.500518
230.879954,3.409578,0.500505
231.399958,3.409529,0.500479
231.919963,3.409481,0.500505
232.439954,3.409428,0.500492
232.959959,3.409380,0.500505
233.479972,3.409334,0.500479
233.999975,3.409289,0.500505
234.519952,3.409240,0.500505
235.039953,3.409189,0.500492
235.559968,3.409144,0.500518
236.079955,3.409094,0.500452
236.599953,3.409047,0.500492
237.119953,3.409002,0.500492
237.639961,3.408952,0.500518
238.159935,3.408905,0.500492
238.679938,3.408859,0.500531
239.199933,3.408809,0.500492
239.719967,3.408760,0.500531
240.239969,3.408714,0.500479
240.759973,3.408667,0.500452
241.279976,3.408618,0.500492
241.799981,3.408571,0.500492
242.319972,3.408524,0.500492
242.839985,3.408476,0.500505
243.359968,3.408428,0.500518
243.879973,3.408380,0.500479
244.399963,3.408333,0.500492
244.919971,3.408285,0.500479
245.439976,3.408240,0.500466
245.959968,3.408191,0.500492
246.479966,3.408144,0.500505
246.999969,3.408098,0.500492
247.519970,3.408046,0.500505
248.039968,3.408001,0.500492
248.559949,3.407956,0.500505
249.079968,3.407908,0.500492
249.599974,3.407860,0.500531
250.119965,3.407813,0.500492
250.639965,3.407769,0.500505
251.159971,3.407717,0.500492
251.679967,3.407669,0.500518
252.199964,3.407627,0.500492
252.719971,3.407578,0.500505
253.239974,3.407528,0.500505
253.759968,3.407482,0.500492
254.279977,3.407437,0.500479
254.799966,3.407389,0.500505
255.319968,3.407340,0.500531
255.839986,3.407294,0.500505
256.359977,3.407247,0.500492
256.879969,3.407200,0.500505
257.399970,3.407153,0.500518
257.919962,3.407106,0.500505
258.439964,3.407059,0.500466
258.959965,3.407011,0.500492
259.479965,3.406970,0.500518
259.999969,3.406921,0.500479
260.519964,3.406875,0.500518
261.039973,3.406827,0.500505
261.559964,3.406777,0.500505
262.079959,3.406733,0.500531
262.599964,3.406686,0.500479
263.119970,3.406637,0.500466
263.639970,3.406593,0.500479
264.159969,3.406544,0.500518
264.679969,3.406499,0.500505
265.199961,3.406450,0.500492
265.719959,3.406402,0.500518
266.239975,3.406357,0.500479
266.759969,3.406312,0.500518
267.279968,3.406264,0.500492
267.799968,3.406217,0.500505
268.320009,3.406173,0.500492
268.839950,3.406126,0.500492
269.359954,3.406077,0.500492
269.879970,3.406035,0.500505
270.399964,3.405987,0.500479
270.919934,3.405939,0.500505
271.439949,3.405895,0.500479
271.959967,3.405848,0.500505
272.479965,3.405801,0.500505
272.999974,3.405755,0.500492
273.519959,3.405710,0.500518
274.039963,3.405663,0.500479
274.559961,3.405614,0.500505
275.079970,3.405570,0.500492
275.599966,3.405523,0.500479
276.119976,3.405475,0.500492
276.639974,3.405431,0.500505
277.159950,3.405382,0.500505
277.679980,3.405338,0.500505
278.199966,3.405290,0.500505
278.719968,3.405245,0.500531
279.239971,3.405197,0.500492
279.759968,3.405152,0.500505
280.279974,3.405104,0.500518
280.799968,3.405059,0.500426
281.319977,3.405012,0.500505
281.840067,3.404968,0.500531
282.359963,3.404920,0.500466
282.879952,3.404876,0.500505
283.399957,3.404826,0.500531
283.919965,3.404779,0.500505
284.439969,3.404738,0.500518
284.959954,3.404688,0.500518
285.479950,3.404646,0.500492
285.999962,3.404599,0.500518
286.519977,3.404551,0.500531
287.039940,3.404506,0.500518
287.559955,3.404459,0.500518
288.079962,3.404417,0.500492
288.599953,3.404369,0.500531
289.119963,3.404323,0.500466
289.639956,3.404277,0.500518
290.159950,3.404232,0.500505
290.679950,3.404183,0.500479
291.199945,3.404139,0.500518
291.719958,3.404089,0.500492
292.239935,3.404048,0.500518
292.759934,3.403999,0.500505
293.279956,3.403952,0.500492
293.799955,3.403910,0.500466
294.319970,3.403862,0.500492
294.840026,3.403819,0.500518
295.360025,3.403769,0.500492
295.879977,3.403725,0.500505
296.399968,3.403677,0.500518
296.919971,3.403635,0.500479
297.439968,3.403587,0.500505
297.959965,3.403539,0.500505
298.479966,3.403499,0.500452
298.999969,3.403452,0.500518
299.519972,3.403409,0.500492
300.039970,3.403357,0.500479
300.559964,3.403312,0.500531
301.079969,3.403268,0.500479
301.599967,3.403219,0.500492
302.119964,3.403176,0.500505
302.639965,3.403130,0.500492
303.159968,3.403087,0.500518
303.679969,3.403040,0.500492
304.199972,3.402994,0.500505
304.719955,3.402948,0.500518
305.239937,3.402902,0.500492
305.759935,3.402858,0.500492
306.279961,3.402813,0.500518
306.799957,3.402766,0.500452
307.319964,3.402721,0.500492
307.839979,3.402676,0.500505
308.359940,3.402629,0.500466
308.879937,3.402583,0.500531
309.399972,3.402537,0.500518
309.919958,3.402493,0.500492
310.439946,3.402449,0.500518
310.959952,3.402400,0.500505
311.479941,3.402356,0.500439
311.999964,3.402309,0.500518
312.519973,3.402265,0.500466
313.039968,3.402218,0.500492
313.559970,3.402174,0.500518
314.079967,3.402129,0.500479
314.599962,3.402083,0.500518
315.119965,3.402038,0.500518
315.639969,3.401994,0.500492
316.159969,3.401945,0.500479
316.679965,3.401902,0.500505
317.199966,3.401858,0.500492
317.719968,3.401810,0.500531
318.239951,3.401769,0.500505
318.760086,3.401719,0.500531
319.279934,3.401671,0.500505
319.799973,3.401631,0.500505
320.319969,3.401583,0.500518
320.840030,3.401540,0.500492
321.359949,3.401494,0.500518
321.879976,3.401453,0.500492
322.399946,3.401404,0.500505
322.919951,3.401361,0.500492
323.439952,3.401312,0.500492
323.959934,3.401269,0.500518
324.479954,3.401226,0.500439
324.999944,3.401176,0.500518
325.519957,3.401132,0.500544
326.039937,3.401088,0.500492
326.559937,3.401045,0.500518
327.079947,3.400996,0.500479
327.599947,3.400951,0.500557
328.119948,3.400910,0.500492
328.639945,3.400863,0.500518
329.159951,3.400818,0.500466
329.679935,3.400772,0.500492
330.199950,3.400729,0.500518
330.719956,3.400680,0.500492
331.239941,3.400638,0.500531
331.759934,3.400591,0.500492
332.279940,3.400545,0.500492
332.799934,3.400501,0.500505
333.319956,3.400456,0.500492
333.839978,3.400414,0.500466
334.359951,3.400368,0.500505
334.879952,3.400325,0.500531
335.400002,3.400275,0.500492
335.919948,3.400230,0.500505
336.439955,3.400185,0.500518
336.959952,3.400140,0.500479
337.479967,3.400096,0.500518
337.999971,3.400050,0.500531
338.519974,3.400007,0.500479
339.039962,3.399959,0.500518
339.559979,3.399914,0.500505
340.079966,3.399874,0.500479
340.599956,3.399824,0.500531
341.119958,3.399781,0.500505
341.639937,3.399736,0.500531
342.159934,3.399692,0.500492
342.679931,3.399644,0.500492
343.199957,3.399600,0.500531
343.719941,3.399555,0.500505
344.239960,3.399511,0.500518
344.759950,3.399467,0.500518
345.279955,3.399420,0.500479
345.799962,3.399374,0.500518
346.319953,3.399331,0.500518
346.839963,3.399287,0.500439
347.359958,3.399243,0.500518
347.879957,3.399199,0.500505
348.399954,3.399150,0.500531
348.919984,3.399107,0.500505
349.439951,3.399061,0.500505
