time,voltage,current
0.000000,4.095017,1.000212
0.520006,4.081784,1.000252
1.040008,4.079678,1.000252
1.560007,4.078409,1.000239
2.079974,4.077358,1.000265
2.599976,4.076423,1.000199
3.119976,4.075565,1.000225
3.639973,4.074757,1.000225
4.159976,4.073995,1.000225
4.679988,4.073263,1.000225
5.199976,4.072565,1.000212
5.719975,4.071893,1.000212
6.239975,4.071239,1.000186
6.759974,4.070608,1.000225
7.279978,4.069995,1.000212
7.799973,4.069400,1.000212
8.319970,4.068813,1.000199
8.839974,4.068250,1.000212
9.359971,4.067696,1.000212
9.879975,4.067152,1.000239
10.399977,4.066618,1.000225
10.919972,4.066098,1.000199
11.440010,4.065590,1.000225
11.960007,4.065092,1.000239
12.480004,4.064598,1.000239
13.000008,4.064118,1.000212
13.520005,4.063644,1.000252
14.040007,4.063177,1.000239
14.560004,4.062718,1.000239
15.080008,4.062266,1.000265
15.600009,4.061826,1.000199
16.120009,4.061386,1.000252
16.640008,4.060959,1.000239
17.160011,4.060532,1.000225
17.680023,4.060118,1.000225
18.200011,4.059706,1.000225
18.720015,4.059303,1.000225
19.240009,4.058901,1.000212
19.760010,4.058507,1.000239
20.280011,4.058117,1.000212
20.800091,4.057731,1.000239
21.320007,4.057352,1.000239
21.840006,4.056981,1.000239
22.360010,4.056610,1.000225
22.880008,4.056242,1.000225
23.400011,4.055881,1.000225
23.920009,4.055525,1.000225
24.440032,4.055170,1.000239
24.960010,4.054828,1.000212
25.480002,4.054481,1.000239
26.000044,4.054142,1.000239
26.520009,4.053805,1.000212
27.040008,4.053471,1.000225
27.560007,4.053143,1.000225
28.080011,4.052814,1.000212
28.600008,4.052493,1.000212
29.120008,4.052174,1.000239
29.640004,4.051862,1.000239
30.160009,4.051547,1.000239
30.680028,4.051241,1.000239
31.200003,4.050933,1.000239
31.719999,4.050631,1.000212
32.239974,4.050329,1.000225
32.759979,4.050032,1.000212
33.279976,4.049738,1.000173
33.799972,4.049449,1.000239
34.319979,4.049157,1.000225
34.839977,4.048872,1.000212
35.359981,4.048587,1.000199
35.879976,4.048310,1.000225
36.399980,4.048028,1.000239
36.919973,4.047755,1.000212
37.439972,4.047481,1.000199
37.959972,4.047212,1.000186
38.479972,4.046945,1.000239
38.999972,4.046678,1.000239
39.519977,4.046413,1.000212
40.039973,4.046154,1.000225
40.559975,4.045894,1.000239
41.079977,4.045636,1.000212
41.599971,4.045381,1.000199
42.119972,4.045129,1.000186
42.639976,4.044881,1.000212
43.159975,4.044631,1.000225
43.679984,4.044386,1.000186
44.199975,4.044140,1.000212
44.719973,4.043900,1.000225
45.239976,4.043657,1.000199
45.759975,4.043417,1.000199
46.279976,4.043182,1.000173
46.799978,4.042947,1.000225
47.319974,4.042714,1.000212
47.839974,4.042483,1.000199
48.359977,4.042258,1.000212
48.879972,4.042025,1.000225
49.399984,4.041800,1.000212
49.919977,4.041575,1.000199
50.439977,4.041357,1.000225
50.959969,4.041135,1.000199
51.479975,4.040916,1.000199
51.999973,4.040696,1.000199
52.520001,4.040483,1.000212
53.039974,4.040266,1.000225
53.559974,4.040053,1.000199
54.079975,4.039842,1.000212
54.599975,4.039631,1.000239
55.119972,4.039425,1.000212
55.639973,4.039220,1.000186
56.159975,4.039012,1.000225
56.679986,4.038811,1.000173
57.199975,4.038608,1.000199
57.719975,4.038407,1.000225
58.239976,4.038207,1.000212
58.759975,4.038010,1.000199
59.279972,4.037810,1.000199
59.799973,4.037617,1.000239
60.319972,4.037424,1.000225
60.839976,4.037226,1.000239
61.359976,4.037034,1.000225
61.879976,4.036848,1.000199
62.399975,4.036659,1.000173
62.919975,4.036470,1.000239
63.439975,4.036282,1.000225
63.959973,4.036096,1.000160
64.479972,4.035914,1.000239
64.999975,4.035731,1.000225
65.519974,4.035549,1.000225
66.039997,4.035368,1.000186
66.559976,4.035189,1.000212
67.079974,4.035012,1.000212
67.599976,4.034834,1.000225
68.119973,4.034657,1.000225
68.639975,4.034485,1.000186
69.159973,4.034308,1.000186
69.680073,4.034138,1.000186
70.200008,4.033961,1.000239
70.720011,4.033791,1.000225
71.240005,4.033624,1.000199
71.760002,4.033455,1.000239
72.280008,4.033285,1.000212
72.800010,4.033120,1.000199
73.320007,4.032953,1.000225
73.840006,4.032789,1.000199
74.360006,4.032624,1.000186
74.880009,4.032463,1.000186
75.400009,4.032299,1.000212
75.920005,4.032140,1.000252
76.440022,4.031980,1.000199
76.960007,4.031819,1.000212
77.480002,4.031664,1.000199
78.000010,4.031505,1.000225
78.520011,4.031348,1.000199
79.040008,4.031193,1.000160
79.560008,4.031038,1.000225
80.080006,4.030886,1.000212
80.600012,4.030733,1.000225
81.120006,4.030583,1.000199
81.640007,4.030432,1.000186
82.160005,4.030278,1.000199
82.680025,4.030130,1.000199
83.200007,4.029980,1.000225
83.720011,4.029832,1.000199
84.240008,4.029687,1.000212
84.760011,4.029540,1.000212
85.280008,4.029396,1.000212
85.800006,4.029250,1.000186
86.320010,4.029104,1.000212
86.840008,4.028961,1.000199
87.360009,4.028822,1.000199
87.880010,4.028678,1.000186
88.400007,4.028539,1.000239
88.920006,4.028396,1.000199
89.440008,4.028258,1.000212
89.960008,4.028117,1.000212
90.480010,4.027979,1.000212
91.000008,4.027848,1.000225
91.520002,4.027707,1.000199
92.040000,4.027568,1.000160
92.560021,4.027435,1.000199
93.079976,4.027300,1.000225
93.599986,4.027168,1.000199
94.119976,4.027031,1.000225
94.639973,4.026899,1.000199
95.159973,4.026765,1.000239
95.679985,4.026639,1.000212
96.199971,4.026506,1.000225
96.719973,4.026377,1.000160
97.239978,4.026248,1.000225
97.759973,4.026117,1.000173
98.279975,4.025988,1.000199
98.799974,4.025861,1.000199
99.319976,4.025734,1.000212
99.839972,4.025609,1.000212
100.359972,4.025484,1.000199
100.879974,4.025356,1.000199
101.399979,4.025232,1.000186
101.919975,4.025107,1.000199
102.440010,4.024982,1.000212
102.960011,4.024862,1.000199
103.480009,4.024741,1.000225
104.000008,4.024618,1.000212
104.520007,4.024494,1.000199
105.040006,4.024376,1.000186
105.560006,4.024257,1.000212
106.080003,4.024133,1.000199
106.600006,4.024014,1.000239
107.119986,4.023898,1.000186
107.639974,4.023779,1.000239
108.159975,4.023658,1.000199
108.679991,4.023545,1.000225
109.199976,4.023427,1.000212
109.719974,4.023311,1.000186
110.239976,4.023196,1.000212
110.759974,4.023080,1.000225
111.279975,4.022965,1.000212
111.799976,4.022852,1.000199
112.319983,4.022737,1.000225
112.839975,4.022626,1.000212
113.359975,4.022514,1.000225
113.879975,4.022400,1.000212
114.399975,4.022289,1.000147
114.919969,4.022176,1.000239
115.440011,4.022063,1.000212
115.960010,4.021955,1.000212
116.480011,4.021845,1.000212
117.000000,4.021736,1.000225
117.520007,4.021623,1.000199
118.040015,4.021516,1.000225
118.559974,4.021409,1.000212
119.080006,4.021301,1.000199
119.600008,4.021190,1.000212
120.120012,4.021087,1.000212
120.640006,4.020981,1.000225
121.160005,4.020874,1.000186
121.680061,4.020771,1.000212
122.199981,4.020665,1.000199
122.719984,4.020563,1.000186
123.239972,4.020457,1.000186
123.759972,4.020350,1.000212
124.279971,4.020248,1.000212
124.799974,4.020145,1.000212
125.319983,4.020042,1.000225
125.839976,4.019937,1.000225
126.359974,4.019837,1.000225
126.879975,4.019733,1.000186
127.399973,4.019635,1.000160
127.919976,4.019533,1.000212
128.439974,4.019433,1.000186
128.959977,4.019333,1.000225
129.479976,4.019234,1.000186
129.999976,4.019132,1.000212
130.519976,4.019035,1.000186
131.039974,4.018931,1.000186
131.559973,4.018835,1.000212
132.079973,4.018739,1.000173
132.600005,4.018639,1.000199
133.119974,4.018542,1.000160
133.639977,4.018448,1.000225
134.159977,4.018353,1.000212
134.679974,4.018255,1.000239
135.199972,4.018157,1.000199
135.719976,4.018060,1.000199
136.239976,4.017966,1.000239
136.759970,4.017869,1.000186
137.279973,4.017776,1.000225
137.799978,4.017680,1.000199
138.319972,4.017589,1.000199
138.839975,4.017495,1.000212
139.359972,4.017402,1.000225
139.879976,4.017309,1.000212
140.399974,4.017213,1.000160
140.919976,4.017123,1.000212
141.440085,4.017031,1.000212
141.959972,4.016936,1.000225
142.479975,4.016847,1.000212
142.999972,4.016755,1.000199
143.519974,4.016665,1.000173
144.039976,4.016576,1.000212
144.559977,4.016482,1.000225
145.079971,4.016395,1.000173
145.599976,4.016304,1.000199
146.119974,4.016215,1.000199
146.639975,4.016126,1.000225
147.159973,4.016037,1.000199
147.679978,4.015950,1.000212
148.199975,4.015857,1.000225
148.719975,4.015771,1.000199
149.239971,4.015682,1.000199
149.759974,4.015597,1.000186
150.279973,4.015505,1.000186
150.799976,4.015420,1.000212
151.319972,4.015335,1.000239
151.839977,4.015248,1.000173
152.359974,4.015162,1.000225
152.879980,4.015074,1.000199
153.399978,4.014989,1.000239
153.919975,4.014903,1.000186
154.439977,4.014820,1.000239
154.959973,4.014732,1.000199
155.479978,4.014646,1.000239
156.000018,4.014564,1.000199
156.520012,4.014478,1.000212
157.040008,4.014397,1.000199
157.560006,4.014312,1.000212
158.080010,4.014227,1.000199
158.600006,4.014145,1.000199
159.120048,4.014061,1.000212
159.640007,4.013978,1.000199
160.160008,4.013894,1.000252
160.680025,4.013808,1.000199
161.200009,4.013732,1.000225
161.720005,4.013647,1.000186
162.240009,4.013566,1.000212
162.760008,4.013486,1.000160
163.280010,4.013402,1.000212
163.800002,4.013323,1.000199
164.320009,4.013242,1.000212
164.840010,4.013157,1.000225
165.360010,4.013081,1.000225
165.880009,4.012999,1.000199
166.400007,4.012919,1.000225
166.920007,4.012837,1.000225
167.440014,4.012759,1.000160
167.960013,4.012681,1.000212
168.480010,4.012598,1.000212
169.000007,4.012521,1.000225
169.520002,4.012443,1.000199
170.040005,4.012365,1.000239
170.560011,4.012287,1.000212
171.080010,4.012207,1.000212
171.600004,4.012130,1.000199
172.120006,4.012050,1.000225
172.640010,4.011972,1.000212
173.160007,4.011898,1.000212
173.680011,4.011816,1.000239
174.200012,4.011742,1.000212
174.720005,4.011668,1.000252
175.240008,4.011589,1.000225
175.760004,4.011510,1.000199
176.280007,4.011437,1.000212
176.800011,4.011360,1.000212
177.320006,4.011283,1.000199
177.840008,4.011210,1.000199
178.360009,4.011130,1.000225
178.880011,4.011060,1.000212
179.400014,4.010981,1.000239
179.920004,4.010905,1.000239
180.440006,4.010832,1.000186
180.960007,4.010760,1.000225
181.480006,4.010685,1.000252
182.000007,4.010610,1.000225
182.520006,4.010538,1.000199
183.040010,4.010461,1.000225
183.560001,4.010389,1.000199
184.080004,4.010317,1.000239
184.600005,4.010241,1.000199
185.120005,4.010167,1.000186
185.640047,4.010094,1.000225
186.160006,4.010024,1.000199
186.680028,4.009951,1.000225
187.200007,4.009877,1.000225
187.720008,4.009807,1.000225
188.240004,4.009731,1.000239
188.760013,4.009660,1.000212
189.280009,4.009589,1.000225
189.800009,4.009520,1.000212
190.320011,4.009445,1.000212
190.840007,4.009374,1.000252
191.360011,4.009302,1.000212
191.880011,4.009233,1.000225
192.400009,4.009162,1.000199
192.920011,4.009091,1.000225
193.440015,4.009022,1.000173
193.960013,4.008951,1.000239
194.480009,4.008882,1.000212
195.000010,4.008809,1.000212
195.520008,4.008738,1.000225
196.040006,4.008668,1.000186
196.559997,4.008601,1.000225
197.079978,4.008531,1.000225
197.599977,4.008459,1.000225
198.119974,4.008389,1.000186
198.639974,4.008318,1.000212
199.160004,4.008251,1.000225
199.679990,4.008182,1.000239
200.199974,4.008116,1.000173
200.719972,4.008045,1.000225
201.239975,4.007978,1.000239
201.759975,4.007911,1.000225
202.279975,4.007840,1.000225
202.799975,4.007773,1.000173
203.319976,4.007703,1.000225
203.839975,4.007638,1.000225
204.359977,4.007569,1.000212
204.879974,4.007504,1.000225
205.399978,4.007435,1.000212
205.919975,4.007367,1.000199
206.439976,4.007300,1.000239
206.959974,4.007231,1.000239
207.479979,4.007169,1.000239
207.999973,4.007099,1.000212
208.519973,4.007035,1.000225
209.039974,4.006968,1.000199
209.559976,4.006899,1.000239
210.079970,4.006837,1.000239
210.599978,4.006770,1.000225
211.120008,4.006703,1.000199
211.640002,4.006640,1.000265
212.160008,4.006573,1.000212
212.680009,4.006506,1.000239
213.200003,4.006438,1.000239
213.720009,4.006375,1.000212
214.240006,4.006307,1.000225
214.760006,4.006246,1.000225
215.280008,4.006178,1.000225
215.800006,4.006115,1.000199
216.320005,4.006046,1.000265
216.840007,4.005984,1.000239
217.360009,4.005916,1.000225
217.880010,4.005852,1.000252
218.400008,4.005786,1.000212
218.920010,4.005726,1.000252
219.440008,4.005662,1.000225
219.960011,4.005595,1.000225
220.480007,4.005537,1.000173
221.000006,4.005467,1.000239
221.520011,4.005402,1.000225
222.040010,4.005340,1.000199
222.560008,4.005277,1.000239
223.080005,4.005214,1.000239
223.600010,4.005150,1.000212
224.120010,4.005085,1.000252
224.640008,4.005023,1.000239
225.160010,4.004963,1.000212
225.680047,4.004895,1.000225
226.199995,4.004835,1.000212
226.719980,4.004772,1.000225
227.239975,4.004711,1.000239
227.759976,4.004649,1.000225
228.279976,4.004582,1.000225
228.799971,4.004524,1.000212
229.319973,4.004461,1.000239
229.839972,4.004397,1.000239
230.359975,4.004335,1.000239
230.879976,4.004271,1.000225
231.399978,4.004212,1.000212
231.919973,4.004148,1.000239
232.439982,4.004086,1.000212
232.959975,4.004028,1.000252
233.479977,4.003965,1.000173
233.999971,4.003902,1.000186
234.519970,4.003841,1.000252
235.039971,4.003782,1.000212
235.559977,4.003720,1.000239
236.079975,4.003659,1.000225
236.599972,4.003600,1.000212
237.119979,4.003535,1.000225
237.639977,4.003475,1.000212
238.159973,4.003414,1.000199
238.679987,4.003354,1.000239
239.199973,4.003294,1.000199
239.719971,4.003230,1.000239
240.239972,4.003173,1.000239
240.759978,4.003114,1.000212
241.279977,4.003054,1.000212
241.799972,4.002991,1.000252
242.319978,4.002930,1.000212
242.839974,4.002872,1.000212
243.359979,4.002813,1.000212
243.879973,4.002754,1.000199
244.399975,4.002693,1.000199
244.919973,4.002636,1.000252
245.439981,4.002572,1.000225
245.959976,4.002515,1.000239
246.479976,4.002458,1.000212
246.999972,4.002400,1.000212
247.519976,4.002338,1.000225
248.039972,4.002280,1.000225
248.559975,4.002221,1.000212
249.079975,4.002163,1.000225
249.599977,4.002102,1.000199
250.119975,4.002044,1.000225
250.639974,4.001985,1.000186
251.159973,4.001930,1.000173
251.679978,4.001868,1.000212
252.200066,4.001808,1.000212
252.720011,4.001751,1.000212
253.240007,4.001694,1.000225
253.760008,4.001638,1.000252
254.280007,4.001577,1.000186
254.800010,4.001521,1.000212
255.320007,4.001461,1.000239
255.840009,4.001404,1.000186
256.360008,4.001347,1.000225
256.880008,4.001290,1.000186
257.400011,4.001231,1.000212
257.920009,4.001172,1.000239
258.440012,4.001115,1.000239
258.960010,4.001058,1.000212
259.480004,4.001003,1.000239
260.000010,4.000943,1.000225
260.520010,4.000887,1.000199
261.040017,4.000828,1.000225
261.560007,4.000768,1.000252
262.080009,4.000714,1.000225
262.600013,4.000656,1.000225
263.120010,4.000599,1.000212
263.640005,4.000542,1.000225
264.160009,4.000488,1.000225
264.680027,4.000426,1.000225
265.200009,4.000373,1.000225
265.720044,4.000316,1.000239
266.240010,4.000258,1.000225
266.760010,4.000199,1.000225
267.280009,4.000146,1.000239
267.800005,4.000088,1.000239
268.320010,4.000032,1.000239
268.840006,3.999976,1.000186
269.360009,3.999919,1.000199
269.880010,3.999867,1.000212
270.400012,3.999809,1.000212
270.920008,3.999753,1.000252
271.440025,3.999697,1.000225
271.960002,3.999640,1.000225
272.480010,3.999591,1.000225
273.000007,3.999532,1.000239
273.520005,3.999472,1.000186
274.040007,3.999421,1.000212
274.560009,3.999364,1.000212
275.080004,3.999309,1.000239
275.600007,3.999254,1.000239
276.120011,3.999200,1.000225
276.640008,3.999144,1.000186
277.160009,3.999091,1.000225
277.680027,3.999038,1.000225
278.200008,3.998981,1.000199
278.720006,3.998927,1.000212
279.240010,3.998870,1.000212
279.760009,3.998814,1.000212
280.280009,3.998760,1.000225
280.800009,3.998709,1.000252
281.320010,3.998653,1.000212
281.840004,3.998598,1.000199
282.360009,3.998546,1.000239
282.880009,3.998489,1.000225
283.400014,3.998434,1.000239
283.920004,3.998380,1.000239
284.440005,3.998324,1.000239
284.960010,3.998273,1.000212
285.480006,3.998220,1.000225
286.000004,3.998168,1.000225
286.520010,3.998113,1.000173
287.040008,3.998056,1.000212
287.559998,3.998004,1.000225
288.079973,3.997951,1.000239
288.599972,3.997897,1.000252
289.119974,3.997843,1.000225
289.639975,3.997793,1.000212
290.159974,3.997737,1.000252
290.679975,3.997683,1.000212
291.199973,3.997633,1.000199
291.719977,3.997578,1.000225
292.240003,3.997527,1.000252
292.759976,3.997471,1.000212
293.279973,3.997417,1.000212
293.799975,3.997367,1.000239
294.319972,3.997313,1.000239
294.839974,3.997262,1.000225
295.359973,3.997207,1.000239
295.879974,3.997155,1.000212
296.399976,3.997104,1.000199
296.919981,3.997049,1.000225
297.439977,3.996998,1.000252
297.959976,3.996946,1.000225
298.479978,3.996895,1.000212
298.999971,3.996840,1.000225
299.519974,3.996790,1.000199
300.039970,3.996735,1.000265
300.559978,3.996686,1.000252
301.079975,3.996634,1.000225
301.599976,3.996582,1.000212
302.119974,3.996528,1.000225
302.639976,3.996476,1.000252
303.159973,3.996426,1.000225
303.680067,3.996373,1.000199
304.200008,3.996324,1.000186
304.720009,3.996274,1.000225
305.240008,3.996218,1.000239
305.760003,3.996168,1.000212
306.280001,3.996115,1.000252
306.800008,3.996064,1.000265
307.320006,3.996016,1.000225
307.840010,3.995963,1.000225
308.360007,3.995913,1.000225
308.880008,3.995861,1.000173
309.400013,3.995811,1.000225
309.920006,3.995757,1.000225
310.440005,3.995709,1.000252
310.960010,3.995656,1.000252
311.480006,3.995604,1.000212
312.000012,3.995557,1.000212
312.520010,3.995504,1.000225
313.040012,3.995452,1.000225
313.560006,3.995403,1.000212
314.080006,3.995349,1.000225
314.600008,3.995300,1.000239
315.120004,3.995251,1.000239
315.640007,3.995197,1.000225
316.160007,3.995149,1.000225
316.680024,3.995097,1.000225
317.200006,3.995047,1.000212
317.720007,3.994999,1.000239
318.240003,3.994948,1.000225
318.760046,3.994893,1.000239
319.280007,3.994844,1.000199
319.800009,3.994793,1.000239
320.320005,3.994748,1.000239
320.840008,3.994696,1.000239
321.360008,3.994646,1.000199
321.880004,3.994593,1.000186
322.400008,3.994546,1.000212
322.920011,3.994493,1.000239
323.440009,3.994443,1.000212
323.960008,3.994393,1.000199
324.480007,3.994345,1.000252
325.000010,3.994297,1.000212
325.520003,3.994246,1.000239
326.040003,3.994195,1.000199
326.559989,3.994146,1.000199
327.079975,3.994097,1.000239
327.599970,3.994050,1.000265
328.119975,3.994001,1.000212
328.639971,3.993950,1.000225
329.159978,3.993901,1.000212
329.679984,3.993850,1.000212
330.199973,3.993806,1.000199
330.719972,3.993750,1.000186
331.239971,3.993706,1.000212
331.759973,3.993655,1.000212
332.280003,3.993607,1.000225
332.799975,3.993558,1.000212
333.319973,3.993509,1.000225
333.839976,3.993461,1.000199
334.359972,3.993411,1.000225
334.879973,3.993365,1.000173
335.399974,3.993314,1.000239
335.920011,3.993265,1.000212
336.440011,3.993216,1.000225
336.960006,3.993171,1.000212
337.480002,3.993121,1.000239
338.000003,3.993070,1.000252
338.520008,3.993023,1.000239
339.040006,3.992976,1.000239
339.560006,3.992926,1.000186
340.080007,3.992878,1.000239
340.600008,3.992829,1.000239
341.120006,3.992779,1.000239
341.640002,3.992735,1.000239
342.160002,3.992685,1.000239
342.680013,3.992639,1.000239
343.200007,3.992590,1.000239
343.720003,3.992541,1.000212
344.240007,3.992494,1.000199
344.760009,3.992448,1.000239
345.279980,3.992398,1.000252
345.799980,3.992349,1.000239
346.319980,3.992303,1.000239
346.839972,3.992254,1.000239
347.359972,3.992207,1.000225
347.879972,3.992159,1.000212
348.399976,3.992113,1.000239
348.919973,3.992064,1.000212
349.439975,3.992017,1.000239
